[Info]
Number of Regions=0002
Version=1.3.1

[Region 1]
Region Name=Si_K1s_4600
Dimension 1 name=Kinetic Energy [eV]
Dimension 1 size=156
Dimension 1 scale=2750 2750.1 2750.2 2750.3 2750.4 2750.5 2750.6 2750.7 2750.8 2750.9 2751 2751.1 2751.2 2751.3 2751.4 2751.5 2751.6 2751.7 2751.8 2751.9 2752 2752.1 2752.2 2752.3 2752.4 2752.5 2752.6 2752.7 2752.8 2752.9 2753 2753.1 2753.2 2753.3 2753.4 2753.5 2753.6 2753.7 2753.8 2753.9 2754 2754.1 2754.2 2754.3 2754.4 2754.5 2754.6 2754.7 2754.8 2754.9 2755 2755.1 2755.2 2755.3 2755.4 2755.5 2755.6 2755.7 2755.8 2755.9 2756 2756.1 2756.2 2756.3 2756.4 2756.5 2756.6 2756.7 2756.8 2756.9 2757 2757.1 2757.2 2757.3 2757.4 2757.5 2757.6 2757.7 2757.8 2757.9 2758 2758.1 2758.2 2758.3 2758.4 2758.5 2758.6 2758.7 2758.8 2758.9 2759 2759.1 2759.2 2759.3 2759.4 2759.5 2759.6 2759.7 2759.8 2759.9 2760 2760.1 2760.2 2760.3 2760.4 2760.5 2760.6 2760.7 2760.8 2760.9 2761 2761.1 2761.2 2761.3 2761.4 2761.5 2761.6 2761.7 2761.8 2761.9 2762 2762.1 2762.2 2762.3 2762.4 2762.5 2762.6 2762.7 2762.8 2762.9 2763 2763.1 2763.2 2763.3 2763.4 2763.5 2763.6 2763.7 2763.8 2763.9 2764 2764.1 2764.2 2764.3 2764.4 2764.5 2764.6 2764.7 2764.8 2764.9 2765 2765.1 2765.2 2765.3 2765.4 2765.5

[Info 1]
Region Name=Si_K1s_4600
Lens Mode=T_HiPPHAXPES
Pass Energy=100
Number of Sweeps=1
Excitation Energy=3.10021844987699E-317
Energy Scale=Kinetic
Acquisition Mode=Swept
Energy Unit=Kinetic
Center Energy=2757.75
Low Energy=2750
High Energy=2765.5
Energy Step=0.1
Step Time=243
Detector First X-Channel=1
Detector Last X-Channel=512
Detector First Y-Channel=1
Detector Last Y-Channel=460
Number of Slices=1
File=D:\Data\2019_Blomberg_Pd100\Pd100_0094.pxt,.ibw,.txt
Sequence=D:\Data\2018_11_26_Copper\Sequence_files_Copper.seq
Spectrum Name=Pd100_Si_K1s_4600
Instrument=HiPP-2 10kV-9862
Location=
User=
Sample=Pd100
Comments=Pd100 CO oxidation;
Date=2019-03-24
Time=20:58:56
Time per Spectrum Channel=20.898
DetectorMode=ADC
[Run Mode Information 1]
Name=Add Dimension



[Data 1]
 2.75000000000000E+0003  2.58830000000000E+0004
 2.75010000000000E+0003  2.70210000000000E+0004
 2.75020000000000E+0003  2.62830000000000E+0004
 2.75030000000000E+0003  2.49880000000000E+0004
 2.75040000000000E+0003  2.59720000000000E+0004
 2.75050000000000E+0003  2.78340000000000E+0004
 2.75060000000000E+0003  2.48450000000000E+0004
 2.75070000000000E+0003  2.47610000000000E+0004
 2.75080000000000E+0003  2.74950000000000E+0004
 2.75090000000000E+0003  2.68270000000000E+0004
 2.75100000000000E+0003  2.71800000000000E+0004
 2.75110000000000E+0003  2.56920000000000E+0004
 2.75120000000000E+0003  2.50430000000000E+0004
 2.75130000000000E+0003  2.48080000000000E+0004
 2.75140000000000E+0003  2.59890000000000E+0004
 2.75150000000000E+0003  2.80460000000000E+0004
 2.75160000000000E+0003  2.65900000000000E+0004
 2.75170000000000E+0003  2.56170000000000E+0004
 2.75180000000000E+0003  2.54090000000000E+0004
 2.75190000000000E+0003  2.79450000000000E+0004
 2.75200000000000E+0003  2.62990000000000E+0004
 2.75210000000000E+0003  2.56660000000000E+0004
 2.75220000000000E+0003  2.75440000000000E+0004
 2.75230000000000E+0003  2.64690000000000E+0004
 2.75240000000000E+0003  2.75280000000000E+0004
 2.75250000000000E+0003  2.81070000000000E+0004
 2.75260000000000E+0003  2.80170000000000E+0004
 2.75270000000000E+0003  2.76750000000000E+0004
 2.75280000000000E+0003  2.74190000000000E+0004
 2.75290000000000E+0003  2.86970000000000E+0004
 2.75300000000000E+0003  2.95670000000000E+0004
 2.75310000000000E+0003  2.89440000000000E+0004
 2.75320000000000E+0003  2.96850000000000E+0004
 2.75330000000000E+0003  3.06430000000000E+0004
 2.75340000000000E+0003  3.05630000000000E+0004
 2.75350000000000E+0003  3.06840000000000E+0004
 2.75360000000000E+0003  3.04120000000000E+0004
 2.75370000000000E+0003  3.04920000000000E+0004
 2.75380000000000E+0003  3.05280000000000E+0004
 2.75390000000000E+0003  2.92270000000000E+0004
 2.75400000000000E+0003  2.98980000000000E+0004
 2.75410000000000E+0003  2.96370000000000E+0004
 2.75420000000000E+0003  3.10850000000000E+0004
 2.75430000000000E+0003  3.22060000000000E+0004
 2.75440000000000E+0003  3.19890000000000E+0004
 2.75450000000000E+0003  2.82140000000000E+0004
 2.75460000000000E+0003  2.78090000000000E+0004
 2.75470000000000E+0003  2.83400000000000E+0004
 2.75480000000000E+0003  2.79560000000000E+0004
 2.75490000000000E+0003  2.89070000000000E+0004
 2.75500000000000E+0003  2.78640000000000E+0004
 2.75510000000000E+0003  2.86650000000000E+0004
 2.75520000000000E+0003  2.59570000000000E+0004
 2.75530000000000E+0003  2.84380000000000E+0004
 2.75540000000000E+0003  2.68410000000000E+0004
 2.75550000000000E+0003  2.76120000000000E+0004
 2.75560000000000E+0003  2.61720000000000E+0004
 2.75570000000000E+0003  2.82900000000000E+0004
 2.75580000000000E+0003  2.77960000000000E+0004
 2.75590000000000E+0003  2.60820000000000E+0004
 2.75600000000000E+0003  2.47100000000000E+0004
 2.75610000000000E+0003  2.65600000000000E+0004
 2.75620000000000E+0003  2.68840000000000E+0004
 2.75630000000000E+0003  2.79310000000000E+0004
 2.75640000000000E+0003  2.81000000000000E+0004
 2.75650000000000E+0003  2.67340000000000E+0004
 2.75660000000000E+0003  2.71540000000000E+0004
 2.75670000000000E+0003  2.75530000000000E+0004
 2.75680000000000E+0003  2.72010000000000E+0004
 2.75690000000000E+0003  2.66770000000000E+0004
 2.75700000000000E+0003  2.79990000000000E+0004
 2.75710000000000E+0003  2.70880000000000E+0004
 2.75720000000000E+0003  2.82420000000000E+0004
 2.75730000000000E+0003  2.63420000000000E+0004
 2.75740000000000E+0003  2.58620000000000E+0004
 2.75750000000000E+0003  2.72540000000000E+0004
 2.75760000000000E+0003  2.71220000000000E+0004
 2.75770000000000E+0003  2.78150000000000E+0004
 2.75780000000000E+0003  2.78670000000000E+0004
 2.75790000000000E+0003  2.88630000000000E+0004
 2.75800000000000E+0003  2.69570000000000E+0004
 2.75810000000000E+0003  2.72540000000000E+0004
 2.75820000000000E+0003  2.98590000000000E+0004
 2.75830000000000E+0003  2.83200000000000E+0004
 2.75840000000000E+0003  2.86020000000000E+0004
 2.75850000000000E+0003  2.67780000000000E+0004
 2.75860000000000E+0003  2.77600000000000E+0004
 2.75870000000000E+0003  2.77850000000000E+0004
 2.75880000000000E+0003  2.92630000000000E+0004
 2.75890000000000E+0003  2.63400000000000E+0004
 2.75900000000000E+0003  2.77080000000000E+0004
 2.75910000000000E+0003  2.91200000000000E+0004
 2.75920000000000E+0003  2.88390000000000E+0004
 2.75930000000000E+0003  2.75070000000000E+0004
 2.75940000000000E+0003  2.75960000000000E+0004
 2.75950000000000E+0003  2.90250000000000E+0004
 2.75960000000000E+0003  2.90420000000000E+0004
 2.75970000000000E+0003  2.76980000000000E+0004
 2.75980000000000E+0003  2.86990000000000E+0004
 2.75990000000000E+0003  2.88960000000000E+0004
 2.76000000000000E+0003  2.76700000000000E+0004
 2.76010000000000E+0003  2.70570000000000E+0004
 2.76020000000000E+0003  2.81550000000000E+0004
 2.76030000000000E+0003  2.97160000000000E+0004
 2.76040000000000E+0003  2.95540000000000E+0004
 2.76050000000000E+0003  2.89190000000000E+0004
 2.76060000000000E+0003  2.80090000000000E+0004
 2.76070000000000E+0003  2.97170000000000E+0004
 2.76080000000000E+0003  2.88980000000000E+0004
 2.76090000000000E+0003  2.95990000000000E+0004
 2.76100000000000E+0003  3.00310000000000E+0004
 2.76110000000000E+0003  2.84450000000000E+0004
 2.76120000000000E+0003  2.98080000000000E+0004
 2.76130000000000E+0003  2.97700000000000E+0004
 2.76140000000000E+0003  3.03660000000000E+0004
 2.76150000000000E+0003  2.83040000000000E+0004
 2.76160000000000E+0003  2.87560000000000E+0004
 2.76170000000000E+0003  2.81970000000000E+0004
 2.76180000000000E+0003  2.97990000000000E+0004
 2.76190000000000E+0003  2.74980000000000E+0004
 2.76200000000000E+0003  2.72110000000000E+0004
 2.76210000000000E+0003  2.89650000000000E+0004
 2.76220000000000E+0003  2.86690000000000E+0004
 2.76230000000000E+0003  2.79660000000000E+0004
 2.76240000000000E+0003  2.89870000000000E+0004
 2.76250000000000E+0003  2.80430000000000E+0004
 2.76260000000000E+0003  3.10930000000000E+0004
 2.76270000000000E+0003  2.98570000000000E+0004
 2.76280000000000E+0003  2.93690000000000E+0004
 2.76290000000000E+0003  2.88050000000000E+0004
 2.76300000000000E+0003  2.85530000000000E+0004
 2.76310000000000E+0003  2.96240000000000E+0004
 2.76320000000000E+0003  2.83740000000000E+0004
 2.76330000000000E+0003  2.89550000000000E+0004
 2.76340000000000E+0003  2.87690000000000E+0004
 2.76350000000000E+0003  2.88280000000000E+0004
 2.76360000000000E+0003  2.88870000000000E+0004
 2.76370000000000E+0003  2.75440000000000E+0004
 2.76380000000000E+0003  2.79510000000000E+0004
 2.76390000000000E+0003  2.73400000000000E+0004
 2.76400000000000E+0003  2.82520000000000E+0004
 2.76410000000000E+0003  2.99270000000000E+0004
 2.76420000000000E+0003  2.82480000000000E+0004
 2.76430000000000E+0003  2.72790000000000E+0004
 2.76440000000000E+0003  3.02790000000000E+0004
 2.76450000000000E+0003  2.87570000000000E+0004
 2.76460000000000E+0003  2.84750000000000E+0004
 2.76470000000000E+0003  2.93020000000000E+0004
 2.76480000000000E+0003  2.75100000000000E+0004
 2.76490000000000E+0003  2.67590000000000E+0004
 2.76500000000000E+0003  2.92540000000000E+0004
 2.76510000000000E+0003  2.68040000000000E+0004
 2.76520000000000E+0003  2.78060000000000E+0004
 2.76530000000000E+0003  2.69210000000000E+0004
 2.76540000000000E+0003  2.84290000000000E+0004
 2.76550000000000E+0003  2.80210000000000E+0004

[Region 2]
Region Name=O1s_4600
Dimension 1 name=Kinetic Energy [eV]
Dimension 1 size=161
Dimension 1 scale=4055 4055.1 4055.2 4055.3 4055.4 4055.5 4055.6 4055.7 4055.8 4055.9 4056 4056.1 4056.2 4056.3 4056.4 4056.5 4056.6 4056.7 4056.8 4056.9 4057 4057.1 4057.2 4057.3 4057.4 4057.5 4057.6 4057.7 4057.8 4057.9 4058 4058.1 4058.2 4058.3 4058.4 4058.5 4058.6 4058.7 4058.8 4058.9 4059 4059.1 4059.2 4059.3 4059.4 4059.5 4059.6 4059.7 4059.8 4059.9 4060 4060.1 4060.2 4060.3 4060.4 4060.5 4060.6 4060.7 4060.8 4060.9 4061 4061.1 4061.2 4061.3 4061.4 4061.5 4061.6 4061.7 4061.8 4061.9 4062 4062.1 4062.2 4062.3 4062.4 4062.5 4062.6 4062.7 4062.8 4062.9 4063 4063.1 4063.2 4063.3 4063.4 4063.5 4063.6 4063.7 4063.8 4063.9 4064 4064.1 4064.2 4064.3 4064.4 4064.5 4064.6 4064.7 4064.8 4064.9 4065 4065.1 4065.2 4065.3 4065.4 4065.5 4065.6 4065.7 4065.8 4065.9 4066 4066.1 4066.2 4066.3 4066.4 4066.5 4066.6 4066.7 4066.8 4066.9 4067 4067.1 4067.2 4067.3 4067.4 4067.5 4067.6 4067.7 4067.8 4067.9 4068 4068.1 4068.2 4068.3 4068.4 4068.5 4068.6 4068.7 4068.8 4068.9 4069 4069.1 4069.2 4069.3 4069.4 4069.5 4069.6 4069.7 4069.8 4069.9 4070 4070.1 4070.2 4070.3 4070.4 4070.5 4070.6 4070.7 4070.8 4070.9 4071

[Info 2]
Region Name=O1s_4600
Lens Mode=T_HiPPHAXPES
Pass Energy=100
Number of Sweeps=1
Excitation Energy=3.10021844987699E-317
Energy Scale=Kinetic
Acquisition Mode=Swept
Energy Unit=Kinetic
Center Energy=4063
Low Energy=4055
High Energy=4071
Energy Step=0.1
Step Time=243
Detector First X-Channel=1
Detector Last X-Channel=512
Detector First Y-Channel=1
Detector Last Y-Channel=460
Number of Slices=1
File=D:\Data\2019_Blomberg_Pd100\Pd100_0094.pxt,.ibw,.txt
Sequence=D:\Data\2018_11_26_Copper\Sequence_files_Copper.seq
Spectrum Name=Pd100_O1s_4600
Instrument=HiPP-2 10kV-9862
Location=
User=
Sample=Pd100
Comments=Pd100 CO oxidation;
Date=2019-03-24
Time=20:58:56
Time per Spectrum Channel=20.898
DetectorMode=ADC
[Run Mode Information 2]
Name=Add Dimension



[Data 2]
 4.05500000000000E+0003  6.11400000000000E+0004
 4.05510000000000E+0003  6.22080000000000E+0004
 4.05520000000000E+0003  6.31270000000000E+0004
 4.05530000000000E+0003  6.28230000000000E+0004
 4.05540000000000E+0003  6.29820000000000E+0004
 4.05550000000000E+0003  6.65390000000000E+0004
 4.05560000000000E+0003  6.56400000000000E+0004
 4.05570000000000E+0003  6.48930000000000E+0004
 4.05580000000000E+0003  6.59510000000000E+0004
 4.05590000000000E+0003  6.74560000000000E+0004
 4.05600000000000E+0003  6.69100000000000E+0004
 4.05610000000000E+0003  6.79360000000000E+0004
 4.05620000000000E+0003  6.79450000000000E+0004
 4.05630000000000E+0003  6.78460000000000E+0004
 4.05640000000000E+0003  6.78330000000000E+0004
 4.05650000000000E+0003  6.80890000000000E+0004
 4.05660000000000E+0003  7.16190000000000E+0004
 4.05670000000000E+0003  7.28730000000000E+0004
 4.05680000000000E+0003  7.41060000000000E+0004
 4.05690000000000E+0003  7.25800000000000E+0004
 4.05700000000000E+0003  7.26130000000000E+0004
 4.05710000000000E+0003  7.00570000000000E+0004
 4.05720000000000E+0003  7.59370000000000E+0004
 4.05730000000000E+0003  7.72990000000000E+0004
 4.05740000000000E+0003  7.77010000000000E+0004
 4.05750000000000E+0003  7.65010000000000E+0004
 4.05760000000000E+0003  7.92590000000000E+0004
 4.05770000000000E+0003  8.13690000000000E+0004
 4.05780000000000E+0003  8.33030000000000E+0004
 4.05790000000000E+0003  8.62090000000000E+0004
 4.05800000000000E+0003  8.83970000000000E+0004
 4.05810000000000E+0003  9.47220000000000E+0004
 4.05820000000000E+0003  9.90340000000000E+0004
 4.05830000000000E+0003  9.87020000000000E+0004
 4.05840000000000E+0003  9.41300000000000E+0004
 4.05850000000000E+0003  8.96580000000000E+0004
 4.05860000000000E+0003  8.75610000000000E+0004
 4.05870000000000E+0003  8.68710000000000E+0004
 4.05880000000000E+0003  8.72070000000000E+0004
 4.05890000000000E+0003  9.38520000000000E+0004
 4.05900000000000E+0003  1.02097000000000E+0005
 4.05910000000000E+0003  1.10335000000000E+0005
 4.05920000000000E+0003  1.26669000000000E+0005
 4.05930000000000E+0003  1.34180000000000E+0005
 4.05940000000000E+0003  1.31325000000000E+0005
 4.05950000000000E+0003  1.21088000000000E+0005
 4.05960000000000E+0003  1.10419000000000E+0005
 4.05970000000000E+0003  1.06985000000000E+0005
 4.05980000000000E+0003  1.12540000000000E+0005
 4.05990000000000E+0003  1.20776000000000E+0005
 4.06000000000000E+0003  1.33969000000000E+0005
 4.06010000000000E+0003  1.44431000000000E+0005
 4.06020000000000E+0003  1.41477000000000E+0005
 4.06030000000000E+0003  1.28406000000000E+0005
 4.06040000000000E+0003  1.11340000000000E+0005
 4.06050000000000E+0003  1.00863000000000E+0005
 4.06060000000000E+0003  9.46390000000000E+0004
 4.06070000000000E+0003  9.24350000000000E+0004
 4.06080000000000E+0003  9.45080000000000E+0004
 4.06090000000000E+0003  9.26140000000000E+0004
 4.06100000000000E+0003  9.36730000000000E+0004
 4.06110000000000E+0003  9.86240000000000E+0004
 4.06120000000000E+0003  1.03183000000000E+0005
 4.06130000000000E+0003  1.00708000000000E+0005
 4.06140000000000E+0003  9.92040000000000E+0004
 4.06150000000000E+0003  1.04484000000000E+0005
 4.06160000000000E+0003  1.07895000000000E+0005
 4.06170000000000E+0003  1.08341000000000E+0005
 4.06180000000000E+0003  1.17976000000000E+0005
 4.06190000000000E+0003  1.15836000000000E+0005
 4.06200000000000E+0003  1.22058000000000E+0005
 4.06210000000000E+0003  1.26484000000000E+0005
 4.06220000000000E+0003  1.28198000000000E+0005
 4.06230000000000E+0003  1.30332000000000E+0005
 4.06240000000000E+0003  1.38305000000000E+0005
 4.06250000000000E+0003  1.47410000000000E+0005
 4.06260000000000E+0003  1.50317000000000E+0005
 4.06270000000000E+0003  1.54023000000000E+0005
 4.06280000000000E+0003  1.60436000000000E+0005
 4.06290000000000E+0003  1.65976000000000E+0005
 4.06300000000000E+0003  1.76890000000000E+0005
 4.06310000000000E+0003  1.79933000000000E+0005
 4.06320000000000E+0003  1.93064000000000E+0005
 4.06330000000000E+0003  2.01345000000000E+0005
 4.06340000000000E+0003  2.10067000000000E+0005
 4.06350000000000E+0003  2.10416000000000E+0005
 4.06360000000000E+0003  2.24685000000000E+0005
 4.06370000000000E+0003  2.33088000000000E+0005
 4.06380000000000E+0003  2.38171000000000E+0005
 4.06390000000000E+0003  2.40495000000000E+0005
 4.06400000000000E+0003  2.48183000000000E+0005
 4.06410000000000E+0003  2.56398000000000E+0005
 4.06420000000000E+0003  2.56997000000000E+0005
 4.06430000000000E+0003  2.53633000000000E+0005
 4.06440000000000E+0003  2.57679000000000E+0005
 4.06450000000000E+0003  2.58279000000000E+0005
 4.06460000000000E+0003  2.48700000000000E+0005
 4.06470000000000E+0003  2.49213000000000E+0005
 4.06480000000000E+0003  2.44342000000000E+0005
 4.06490000000000E+0003  2.32380000000000E+0005
 4.06500000000000E+0003  2.20433000000000E+0005
 4.06510000000000E+0003  2.09944000000000E+0005
 4.06520000000000E+0003  1.91665000000000E+0005
 4.06530000000000E+0003  1.84732000000000E+0005
 4.06540000000000E+0003  1.70098000000000E+0005
 4.06550000000000E+0003  1.63526000000000E+0005
 4.06560000000000E+0003  1.50547000000000E+0005
 4.06570000000000E+0003  1.37589000000000E+0005
 4.06580000000000E+0003  1.30515000000000E+0005
 4.06590000000000E+0003  1.18338000000000E+0005
 4.06600000000000E+0003  1.14438000000000E+0005
 4.06610000000000E+0003  1.05409000000000E+0005
 4.06620000000000E+0003  9.93300000000000E+0004
 4.06630000000000E+0003  8.71840000000000E+0004
 4.06640000000000E+0003  8.58550000000000E+0004
 4.06650000000000E+0003  7.75290000000000E+0004
 4.06660000000000E+0003  7.42760000000000E+0004
 4.06670000000000E+0003  7.32740000000000E+0004
 4.06680000000000E+0003  6.54130000000000E+0004
 4.06690000000000E+0003  6.30120000000000E+0004
 4.06700000000000E+0003  5.71760000000000E+0004
 4.06710000000000E+0003  5.38180000000000E+0004
 4.06720000000000E+0003  5.32870000000000E+0004
 4.06730000000000E+0003  5.16930000000000E+0004
 4.06740000000000E+0003  4.96080000000000E+0004
 4.06750000000000E+0003  4.69850000000000E+0004
 4.06760000000000E+0003  4.57840000000000E+0004
 4.06770000000000E+0003  4.24330000000000E+0004
 4.06780000000000E+0003  4.14790000000000E+0004
 4.06790000000000E+0003  3.92540000000000E+0004
 4.06800000000000E+0003  3.62090000000000E+0004
 4.06810000000000E+0003  3.57680000000000E+0004
 4.06820000000000E+0003  3.52250000000000E+0004
 4.06830000000000E+0003  3.32540000000000E+0004
 4.06840000000000E+0003  3.28260000000000E+0004
 4.06850000000000E+0003  3.09950000000000E+0004
 4.06860000000000E+0003  3.04060000000000E+0004
 4.06870000000000E+0003  3.03440000000000E+0004
 4.06880000000000E+0003  2.88480000000000E+0004
 4.06890000000000E+0003  2.81650000000000E+0004
 4.06900000000000E+0003  2.68960000000000E+0004
 4.06910000000000E+0003  2.64770000000000E+0004
 4.06920000000000E+0003  2.61430000000000E+0004
 4.06930000000000E+0003  2.47470000000000E+0004
 4.06940000000000E+0003  2.50970000000000E+0004
 4.06950000000000E+0003  2.56780000000000E+0004
 4.06960000000000E+0003  2.24450000000000E+0004
 4.06970000000000E+0003  2.34260000000000E+0004
 4.06980000000000E+0003  2.32140000000000E+0004
 4.06990000000000E+0003  2.10900000000000E+0004
 4.07000000000000E+0003  2.26280000000000E+0004
 4.07010000000000E+0003  2.08790000000000E+0004
 4.07020000000000E+0003  2.25590000000000E+0004
 4.07030000000000E+0003  2.05670000000000E+0004
 4.07040000000000E+0003  1.87540000000000E+0004
 4.07050000000000E+0003  2.02570000000000E+0004
 4.07060000000000E+0003  1.86570000000000E+0004
 4.07070000000000E+0003  1.86280000000000E+0004
 4.07080000000000E+0003  1.73410000000000E+0004
 4.07090000000000E+0003  1.81260000000000E+0004
 4.07100000000000E+0003  1.73430000000000E+0004

