[Info]
Number of Regions=0001
Version=1.3.1

[Region 1]
Region Name=O1s_4600
Dimension 1 name=Kinetic Energy [eV]
Dimension 1 size=161
Dimension 1 scale=4055 4055.1 4055.2 4055.3 4055.4 4055.5 4055.6 4055.7 4055.8 4055.9 4056 4056.1 4056.2 4056.3 4056.4 4056.5 4056.6 4056.7 4056.8 4056.9 4057 4057.1 4057.2 4057.3 4057.4 4057.5 4057.6 4057.7 4057.8 4057.9 4058 4058.1 4058.2 4058.3 4058.4 4058.5 4058.6 4058.7 4058.8 4058.9 4059 4059.1 4059.2 4059.3 4059.4 4059.5 4059.6 4059.7 4059.8 4059.9 4060 4060.1 4060.2 4060.3 4060.4 4060.5 4060.6 4060.7 4060.8 4060.9 4061 4061.1 4061.2 4061.3 4061.4 4061.5 4061.6 4061.7 4061.8 4061.9 4062 4062.1 4062.2 4062.3 4062.4 4062.5 4062.6 4062.7 4062.8 4062.9 4063 4063.1 4063.2 4063.3 4063.4 4063.5 4063.6 4063.7 4063.8 4063.9 4064 4064.1 4064.2 4064.3 4064.4 4064.5 4064.6 4064.7 4064.8 4064.9 4065 4065.1 4065.2 4065.3 4065.4 4065.5 4065.6 4065.7 4065.8 4065.9 4066 4066.1 4066.2 4066.3 4066.4 4066.5 4066.6 4066.7 4066.8 4066.9 4067 4067.1 4067.2 4067.3 4067.4 4067.5 4067.6 4067.7 4067.8 4067.9 4068 4068.1 4068.2 4068.3 4068.4 4068.5 4068.6 4068.7 4068.8 4068.9 4069 4069.1 4069.2 4069.3 4069.4 4069.5 4069.6 4069.7 4069.8 4069.9 4070 4070.1 4070.2 4070.3 4070.4 4070.5 4070.6 4070.7 4070.8 4070.9 4071
Dimension 2 name=Region Iteration[a.u.]
Dimension 2 size=2
Dimension 2 scale=1 2

[Info 1]
Region Name=O1s_4600
Lens Mode=T_HiPPHAXPES
Pass Energy=100
Number of Sweeps=1
Excitation Energy=3.10021844987699E-317
Energy Scale=Kinetic
Acquisition Mode=Swept
Energy Unit=Kinetic
Center Energy=4063
Low Energy=4055
High Energy=4071
Energy Step=0.1
Step Time=243
Detector First X-Channel=1
Detector Last X-Channel=512
Detector First Y-Channel=1
Detector Last Y-Channel=460
Number of Slices=1
File=D:\Data\2019_Blomberg_Pd100\Pd100_0115.pxt,.ibw,.txt
Sequence=D:\Data\2018_11_26_Copper\Sequence_files_Copper.seq
Spectrum Name=Pd100_O1s_4600
Instrument=HiPP-2 10kV-9862
Location=
User=
Sample=Pd100
Comments=Pd100 CO oxidation;
Date=2019-03-25
Time=03:14:35
Time per Spectrum Channel=20.898
DetectorMode=ADC
[Run Mode Information 1]
Name=Add Dimension
Name=Add Dimension


[Data 1]
 4.05500000000000E+0003  6.29400000000000E+0004  6.49180000000000E+0004
 4.05510000000000E+0003  6.42280000000000E+0004  6.43990000000000E+0004
 4.05520000000000E+0003  6.64200000000000E+0004  6.49630000000000E+0004
 4.05530000000000E+0003  6.78850000000000E+0004  6.79580000000000E+0004
 4.05540000000000E+0003  6.73650000000000E+0004  6.63460000000000E+0004
 4.05550000000000E+0003  7.06550000000000E+0004  6.85590000000000E+0004
 4.05560000000000E+0003  6.91050000000000E+0004  6.76700000000000E+0004
 4.05570000000000E+0003  6.52240000000000E+0004  7.12940000000000E+0004
 4.05580000000000E+0003  7.22120000000000E+0004  6.79060000000000E+0004
 4.05590000000000E+0003  6.89770000000000E+0004  7.08930000000000E+0004
 4.05600000000000E+0003  6.96280000000000E+0004  7.23360000000000E+0004
 4.05610000000000E+0003  7.11390000000000E+0004  7.16020000000000E+0004
 4.05620000000000E+0003  7.15160000000000E+0004  7.22220000000000E+0004
 4.05630000000000E+0003  7.53260000000000E+0004  7.04810000000000E+0004
 4.05640000000000E+0003  7.47950000000000E+0004  7.34060000000000E+0004
 4.05650000000000E+0003  7.44070000000000E+0004  7.47990000000000E+0004
 4.05660000000000E+0003  7.73250000000000E+0004  7.27330000000000E+0004
 4.05670000000000E+0003  7.77500000000000E+0004  7.79650000000000E+0004
 4.05680000000000E+0003  7.64870000000000E+0004  7.53390000000000E+0004
 4.05690000000000E+0003  7.76280000000000E+0004  7.62730000000000E+0004
 4.05700000000000E+0003  7.81000000000000E+0004  7.64900000000000E+0004
 4.05710000000000E+0003  7.93740000000000E+0004  7.77730000000000E+0004
 4.05720000000000E+0003  8.06570000000000E+0004  7.75000000000000E+0004
 4.05730000000000E+0003  8.15330000000000E+0004  8.09670000000000E+0004
 4.05740000000000E+0003  8.14760000000000E+0004  8.26930000000000E+0004
 4.05750000000000E+0003  8.22090000000000E+0004  8.12330000000000E+0004
 4.05760000000000E+0003  8.20300000000000E+0004  8.36710000000000E+0004
 4.05770000000000E+0003  8.63530000000000E+0004  8.58260000000000E+0004
 4.05780000000000E+0003  8.90030000000000E+0004  8.89910000000000E+0004
 4.05790000000000E+0003  9.85800000000000E+0004  9.64990000000000E+0004
 4.05800000000000E+0003  1.00610000000000E+0005  9.88510000000000E+0004
 4.05810000000000E+0003  1.04576000000000E+0005  1.02227000000000E+0005
 4.05820000000000E+0003  1.09063000000000E+0005  1.04458000000000E+0005
 4.05830000000000E+0003  1.06020000000000E+0005  1.07274000000000E+0005
 4.05840000000000E+0003  1.02170000000000E+0005  1.02937000000000E+0005
 4.05850000000000E+0003  9.80000000000000E+0004  9.65930000000000E+0004
 4.05860000000000E+0003  9.32870000000000E+0004  9.60320000000000E+0004
 4.05870000000000E+0003  9.25040000000000E+0004  9.24370000000000E+0004
 4.05880000000000E+0003  9.13650000000000E+0004  9.45980000000000E+0004
 4.05890000000000E+0003  9.76010000000000E+0004  9.66920000000000E+0004
 4.05900000000000E+0003  1.08763000000000E+0005  1.06686000000000E+0005
 4.05910000000000E+0003  1.21046000000000E+0005  1.24176000000000E+0005
 4.05920000000000E+0003  1.40037000000000E+0005  1.40922000000000E+0005
 4.05930000000000E+0003  1.47487000000000E+0005  1.47976000000000E+0005
 4.05940000000000E+0003  1.48398000000000E+0005  1.46139000000000E+0005
 4.05950000000000E+0003  1.36298000000000E+0005  1.28845000000000E+0005
 4.05960000000000E+0003  1.19103000000000E+0005  1.16450000000000E+0005
 4.05970000000000E+0003  1.10611000000000E+0005  1.07722000000000E+0005
 4.05980000000000E+0003  1.07832000000000E+0005  1.09793000000000E+0005
 4.05990000000000E+0003  1.10959000000000E+0005  1.12116000000000E+0005
 4.06000000000000E+0003  1.16486000000000E+0005  1.18828000000000E+0005
 4.06010000000000E+0003  1.25789000000000E+0005  1.24120000000000E+0005
 4.06020000000000E+0003  1.26219000000000E+0005  1.22586000000000E+0005
 4.06030000000000E+0003  1.18757000000000E+0005  1.17174000000000E+0005
 4.06040000000000E+0003  1.12309000000000E+0005  1.09268000000000E+0005
 4.06050000000000E+0003  1.03240000000000E+0005  1.02996000000000E+0005
 4.06060000000000E+0003  9.99500000000000E+0004  9.78860000000000E+0004
 4.06070000000000E+0003  9.77780000000000E+0004  9.92280000000000E+0004
 4.06080000000000E+0003  9.86970000000000E+0004  1.01408000000000E+0005
 4.06090000000000E+0003  9.93040000000000E+0004  1.01078000000000E+0005
 4.06100000000000E+0003  9.99630000000000E+0004  1.03081000000000E+0005
 4.06110000000000E+0003  1.00886000000000E+0005  1.00888000000000E+0005
 4.06120000000000E+0003  1.04244000000000E+0005  1.06213000000000E+0005
 4.06130000000000E+0003  1.06783000000000E+0005  1.06943000000000E+0005
 4.06140000000000E+0003  1.08996000000000E+0005  1.06804000000000E+0005
 4.06150000000000E+0003  1.11407000000000E+0005  1.10055000000000E+0005
 4.06160000000000E+0003  1.15310000000000E+0005  1.11439000000000E+0005
 4.06170000000000E+0003  1.17880000000000E+0005  1.18051000000000E+0005
 4.06180000000000E+0003  1.18614000000000E+0005  1.19517000000000E+0005
 4.06190000000000E+0003  1.27017000000000E+0005  1.22875000000000E+0005
 4.06200000000000E+0003  1.26599000000000E+0005  1.26495000000000E+0005
 4.06210000000000E+0003  1.31434000000000E+0005  1.31912000000000E+0005
 4.06220000000000E+0003  1.36674000000000E+0005  1.36354000000000E+0005
 4.06230000000000E+0003  1.42650000000000E+0005  1.40931000000000E+0005
 4.06240000000000E+0003  1.43206000000000E+0005  1.42614000000000E+0005
 4.06250000000000E+0003  1.48660000000000E+0005  1.49571000000000E+0005
 4.06260000000000E+0003  1.57276000000000E+0005  1.55115000000000E+0005
 4.06270000000000E+0003  1.62074000000000E+0005  1.60744000000000E+0005
 4.06280000000000E+0003  1.75437000000000E+0005  1.68004000000000E+0005
 4.06290000000000E+0003  1.77109000000000E+0005  1.77940000000000E+0005
 4.06300000000000E+0003  1.83154000000000E+0005  1.85101000000000E+0005
 4.06310000000000E+0003  1.95395000000000E+0005  1.95140000000000E+0005
 4.06320000000000E+0003  2.01815000000000E+0005  2.00920000000000E+0005
 4.06330000000000E+0003  2.10322000000000E+0005  2.07480000000000E+0005
 4.06340000000000E+0003  2.16428000000000E+0005  2.24915000000000E+0005
 4.06350000000000E+0003  2.30320000000000E+0005  2.26026000000000E+0005
 4.06360000000000E+0003  2.36999000000000E+0005  2.35730000000000E+0005
 4.06370000000000E+0003  2.42266000000000E+0005  2.43715000000000E+0005
 4.06380000000000E+0003  2.51182000000000E+0005  2.49098000000000E+0005
 4.06390000000000E+0003  2.57645000000000E+0005  2.56876000000000E+0005
 4.06400000000000E+0003  2.62793000000000E+0005  2.65651000000000E+0005
 4.06410000000000E+0003  2.66077000000000E+0005  2.68134000000000E+0005
 4.06420000000000E+0003  2.77668000000000E+0005  2.71189000000000E+0005
 4.06430000000000E+0003  2.77101000000000E+0005  2.77162000000000E+0005
 4.06440000000000E+0003  2.80546000000000E+0005  2.80287000000000E+0005
 4.06450000000000E+0003  2.75013000000000E+0005  2.71948000000000E+0005
 4.06460000000000E+0003  2.72959000000000E+0005  2.74928000000000E+0005
 4.06470000000000E+0003  2.69421000000000E+0005  2.65841000000000E+0005
 4.06480000000000E+0003  2.57929000000000E+0005  2.64918000000000E+0005
 4.06490000000000E+0003  2.54650000000000E+0005  2.55649000000000E+0005
 4.06500000000000E+0003  2.46616000000000E+0005  2.48429000000000E+0005
 4.06510000000000E+0003  2.27253000000000E+0005  2.29328000000000E+0005
 4.06520000000000E+0003  2.15856000000000E+0005  2.16823000000000E+0005
 4.06530000000000E+0003  2.06882000000000E+0005  2.00336000000000E+0005
 4.06540000000000E+0003  1.96858000000000E+0005  1.93017000000000E+0005
 4.06550000000000E+0003  1.81891000000000E+0005  1.75060000000000E+0005
 4.06560000000000E+0003  1.68712000000000E+0005  1.63963000000000E+0005
 4.06570000000000E+0003  1.56375000000000E+0005  1.54228000000000E+0005
 4.06580000000000E+0003  1.45218000000000E+0005  1.40385000000000E+0005
 4.06590000000000E+0003  1.33648000000000E+0005  1.32089000000000E+0005
 4.06600000000000E+0003  1.22351000000000E+0005  1.22984000000000E+0005
 4.06610000000000E+0003  1.14960000000000E+0005  1.16867000000000E+0005
 4.06620000000000E+0003  1.03606000000000E+0005  1.06501000000000E+0005
 4.06630000000000E+0003  1.01346000000000E+0005  1.00148000000000E+0005
 4.06640000000000E+0003  9.28950000000000E+0004  9.33140000000000E+0004
 4.06650000000000E+0003  8.93560000000000E+0004  8.72680000000000E+0004
 4.06660000000000E+0003  8.80720000000000E+0004  8.15940000000000E+0004
 4.06670000000000E+0003  8.25850000000000E+0004  8.14190000000000E+0004
 4.06680000000000E+0003  7.90700000000000E+0004  7.64760000000000E+0004
 4.06690000000000E+0003  7.01280000000000E+0004  7.10150000000000E+0004
 4.06700000000000E+0003  6.73440000000000E+0004  6.61830000000000E+0004
 4.06710000000000E+0003  6.42380000000000E+0004  6.37140000000000E+0004
 4.06720000000000E+0003  6.29330000000000E+0004  5.87950000000000E+0004
 4.06730000000000E+0003  5.81170000000000E+0004  5.77540000000000E+0004
 4.06740000000000E+0003  5.53510000000000E+0004  5.36190000000000E+0004
 4.06750000000000E+0003  5.47430000000000E+0004  5.15710000000000E+0004
 4.06760000000000E+0003  5.02760000000000E+0004  4.95900000000000E+0004
 4.06770000000000E+0003  4.81720000000000E+0004  4.60140000000000E+0004
 4.06780000000000E+0003  4.40960000000000E+0004  4.49380000000000E+0004
 4.06790000000000E+0003  4.37450000000000E+0004  4.28920000000000E+0004
 4.06800000000000E+0003  4.24480000000000E+0004  4.15210000000000E+0004
 4.06810000000000E+0003  4.11920000000000E+0004  3.88830000000000E+0004
 4.06820000000000E+0003  3.78200000000000E+0004  3.87720000000000E+0004
 4.06830000000000E+0003  3.62120000000000E+0004  3.64670000000000E+0004
 4.06840000000000E+0003  3.53010000000000E+0004  3.51170000000000E+0004
 4.06850000000000E+0003  3.46020000000000E+0004  3.34700000000000E+0004
 4.06860000000000E+0003  3.19520000000000E+0004  3.29310000000000E+0004
 4.06870000000000E+0003  2.94840000000000E+0004  3.01420000000000E+0004
 4.06880000000000E+0003  2.94900000000000E+0004  3.17000000000000E+0004
 4.06890000000000E+0003  2.88990000000000E+0004  3.07180000000000E+0004
 4.06900000000000E+0003  3.03870000000000E+0004  3.06610000000000E+0004
 4.06910000000000E+0003  2.87990000000000E+0004  2.71750000000000E+0004
 4.06920000000000E+0003  2.71930000000000E+0004  2.70740000000000E+0004
 4.06930000000000E+0003  2.79280000000000E+0004  2.69260000000000E+0004
 4.06940000000000E+0003  2.60870000000000E+0004  2.73340000000000E+0004
 4.06950000000000E+0003  2.66480000000000E+0004  2.51990000000000E+0004
 4.06960000000000E+0003  2.42910000000000E+0004  2.45870000000000E+0004
 4.06970000000000E+0003  2.59270000000000E+0004  2.49700000000000E+0004
 4.06980000000000E+0003  2.25430000000000E+0004  2.45120000000000E+0004
 4.06990000000000E+0003  2.27430000000000E+0004  2.37540000000000E+0004
 4.07000000000000E+0003  2.20280000000000E+0004  2.26940000000000E+0004
 4.07010000000000E+0003  2.06250000000000E+0004  2.32090000000000E+0004
 4.07020000000000E+0003  2.23080000000000E+0004  2.09770000000000E+0004
 4.07030000000000E+0003  2.10100000000000E+0004  2.04180000000000E+0004
 4.07040000000000E+0003  2.04610000000000E+0004  2.05150000000000E+0004
 4.07050000000000E+0003  1.91620000000000E+0004  2.04280000000000E+0004
 4.07060000000000E+0003  2.01550000000000E+0004  2.08860000000000E+0004
 4.07070000000000E+0003  2.06210000000000E+0004  2.04310000000000E+0004
 4.07080000000000E+0003  1.99240000000000E+0004  1.95120000000000E+0004
 4.07090000000000E+0003  1.93640000000000E+0004  1.89450000000000E+0004
 4.07100000000000E+0003  1.89730000000000E+0004  1.81380000000000E+0004

