[Info]
Number of Regions=0001
Version=1.3.1

[Region 1]
Region Name=Ef_4600
Dimension 1 name=Kinetic Energy [eV]
Dimension 1 size=41
Dimension 1 scale=4594 4594.1 4594.2 4594.3 4594.4 4594.5 4594.6 4594.7 4594.8 4594.9 4595 4595.1 4595.2 4595.3 4595.4 4595.5 4595.6 4595.7 4595.8 4595.9 4596 4596.1 4596.2 4596.3 4596.4 4596.5 4596.6 4596.7 4596.8 4596.9 4597 4597.1 4597.2 4597.3 4597.4 4597.5 4597.6 4597.7 4597.8 4597.9 4598

[Info 1]
Region Name=Ef_4600
Lens Mode=T_HiPPHAXPES
Pass Energy=100
Number of Sweeps=3
Excitation Energy=3.10021844987699E-317
Energy Scale=Kinetic
Acquisition Mode=Swept
Energy Unit=Kinetic
Center Energy=4596
Low Energy=4594
High Energy=4598
Energy Step=0.1
Step Time=471
Detector First X-Channel=1
Detector Last X-Channel=512
Detector First Y-Channel=1
Detector Last Y-Channel=460
Number of Slices=1
File=D:\Data\2018_11_RhFebeamtime\0019.pxt,.ibw,.txt
Sequence=D:\SES_1.7.2_Win64_Package\SES_1.7.2_Win64\Sequences\factory.seq
Spectrum Name=Ef_4600
Instrument=HiPP-2 10kV-9862
Location=
User=
Sample=
Comments=Testing the voltage output;
Date=2018-11-18
Time=06:25:02
Time per Spectrum Channel=121.518
DetectorMode=ADC
[Run Mode Information 1]



[Data 1]
 4.59400000000000E+0003  2.84160000000000E+0004
 4.59410000000000E+0003  2.91440000000000E+0004
 4.59420000000000E+0003  2.89870000000000E+0004
 4.59430000000000E+0003  2.76650000000000E+0004
 4.59440000000000E+0003  2.67910000000000E+0004
 4.59450000000000E+0003  2.79250000000000E+0004
 4.59460000000000E+0003  2.82310000000000E+0004
 4.59470000000000E+0003  2.71800000000000E+0004
 4.59480000000000E+0003  2.58030000000000E+0004
 4.59490000000000E+0003  2.49320000000000E+0004
 4.59500000000000E+0003  2.51470000000000E+0004
 4.59510000000000E+0003  2.49440000000000E+0004
 4.59520000000000E+0003  2.55000000000000E+0004
 4.59530000000000E+0003  2.38800000000000E+0004
 4.59540000000000E+0003  2.47050000000000E+0004
 4.59550000000000E+0003  2.51650000000000E+0004
 4.59560000000000E+0003  2.36820000000000E+0004
 4.59570000000000E+0003  2.31890000000000E+0004
 4.59580000000000E+0003  2.51630000000000E+0004
 4.59590000000000E+0003  2.31640000000000E+0004
 4.59600000000000E+0003  2.31260000000000E+0004
 4.59610000000000E+0003  1.99180000000000E+0004
 4.59620000000000E+0003  1.16940000000000E+0004
 4.59630000000000E+0003  4.12100000000000E+0003
 4.59640000000000E+0003  7.64000000000000E+0002
 4.59650000000000E+0003  1.70000000000000E+0002
 4.59660000000000E+0003  4.10000000000000E+0001
 4.59670000000000E+0003  1.85000000000000E+0002
 4.59680000000000E+0003  3.50000000000000E+0001
 4.59690000000000E+0003  1.28000000000000E+0002
 4.59700000000000E+0003  4.80000000000000E+0001
 4.59710000000000E+0003  1.19000000000000E+0002
 4.59720000000000E+0003  2.50000000000000E+0001
 4.59730000000000E+0003  1.40000000000000E+0001
 4.59740000000000E+0003  1.07000000000000E+0002
 4.59750000000000E+0003  4.40000000000000E+0001
 4.59760000000000E+0003  1.77000000000000E+0002
 4.59770000000000E+0003  6.80000000000000E+0001
 4.59780000000000E+0003  1.00000000000000E+0001
 4.59790000000000E+0003  6.80000000000000E+0001
 4.59800000000000E+0003  1.99000000000000E+0002

