[Info]
Number of Regions=0001
Version=1.3.1

[Region 1]
Region Name=Fe2p_4600
Dimension 1 name=Kinetic Energy [eV]
Dimension 1 size=226
Dimension 1 scale=3855 3855.2 3855.4 3855.6 3855.8 3856 3856.2 3856.4 3856.6 3856.8 3857 3857.2 3857.4 3857.6 3857.8 3858 3858.2 3858.4 3858.6 3858.8 3859 3859.2 3859.4 3859.6 3859.8 3860 3860.2 3860.4 3860.6 3860.8 3861 3861.2 3861.4 3861.6 3861.8 3862 3862.2 3862.4 3862.6 3862.8 3863 3863.2 3863.4 3863.6 3863.8 3864 3864.2 3864.4 3864.6 3864.8 3865 3865.2 3865.4 3865.6 3865.8 3866 3866.2 3866.4 3866.6 3866.8 3867 3867.2 3867.4 3867.6 3867.8 3868 3868.2 3868.4 3868.6 3868.8 3869 3869.2 3869.4 3869.6 3869.8 3870 3870.2 3870.4 3870.6 3870.8 3871 3871.2 3871.4 3871.6 3871.8 3872 3872.2 3872.4 3872.6 3872.8 3873 3873.2 3873.4 3873.6 3873.8 3874 3874.2 3874.4 3874.6 3874.8 3875 3875.2 3875.4 3875.6 3875.8 3876 3876.2 3876.4 3876.6 3876.8 3877 3877.2 3877.4 3877.6 3877.8 3878 3878.2 3878.4 3878.6 3878.8 3879 3879.2 3879.4 3879.6 3879.8 3880 3880.2 3880.4 3880.6 3880.8 3881 3881.2 3881.4 3881.6 3881.8 3882 3882.2 3882.4 3882.6 3882.8 3883 3883.2 3883.4 3883.6 3883.8 3884 3884.2 3884.4 3884.6 3884.8 3885 3885.2 3885.4 3885.6 3885.8 3886 3886.2 3886.4 3886.6 3886.8 3887 3887.2 3887.4 3887.6 3887.8 3888 3888.2 3888.4 3888.6 3888.8 3889 3889.2 3889.4 3889.6 3889.8 3890 3890.2 3890.4 3890.6 3890.8 3891 3891.2 3891.4 3891.6 3891.8 3892 3892.2 3892.4 3892.6 3892.8 3893 3893.2 3893.4 3893.6 3893.8 3894 3894.2 3894.4 3894.6 3894.8 3895 3895.2 3895.4 3895.6 3895.8 3896 3896.2 3896.4 3896.6 3896.8 3897 3897.2 3897.4 3897.6 3897.8 3898 3898.2 3898.4 3898.6 3898.8 3899 3899.2 3899.4 3899.6 3899.8 3900

[Info 1]
Region Name=Fe2p_4600
Lens Mode=T_HiPPHAXPES
Pass Energy=100
Number of Sweeps=12
Excitation Energy=3.10021844987699E-317
Energy Scale=Kinetic
Acquisition Mode=Swept
Energy Unit=Kinetic
Center Energy=3877.5
Low Energy=3855
High Energy=3900
Energy Step=0.2
Step Time=329
Detector First X-Channel=1
Detector Last X-Channel=512
Detector First Y-Channel=1
Detector Last Y-Channel=460
Number of Slices=1
File=D:\Data\2018_11_RhFebeamtime\0091.pxt,.ibw,.txt
Sequence=D:\SES_1.7.2_Win64_Package\SES_1.7.2_Win64\Sequences\factory.seq
Spectrum Name=Fe2p_4600
Instrument=HiPP-2 10kV-9862
Location=
User=
Sample=
Comments=Testing the voltage output;
Date=2018-11-19
Time=04:35:44
Time per Spectrum Channel=173.712
DetectorMode=ADC
[Run Mode Information 1]



[Data 1]
 3.85500000000000E+0003  1.23629400000000E+0006
 3.85520000000000E+0003  1.24142200000000E+0006
 3.85540000000000E+0003  1.24919600000000E+0006
 3.85560000000000E+0003  1.23976800000000E+0006
 3.85580000000000E+0003  1.23982300000000E+0006
 3.85600000000000E+0003  1.23674900000000E+0006
 3.85620000000000E+0003  1.24599700000000E+0006
 3.85640000000000E+0003  1.26074200000000E+0006
 3.85660000000000E+0003  1.25861000000000E+0006
 3.85680000000000E+0003  1.25886900000000E+0006
 3.85700000000000E+0003  1.25204400000000E+0006
 3.85720000000000E+0003  1.25305900000000E+0006
 3.85740000000000E+0003  1.24866300000000E+0006
 3.85760000000000E+0003  1.24789900000000E+0006
 3.85780000000000E+0003  1.25785100000000E+0006
 3.85800000000000E+0003  1.26037400000000E+0006
 3.85820000000000E+0003  1.24822200000000E+0006
 3.85840000000000E+0003  1.25613100000000E+0006
 3.85860000000000E+0003  1.26249000000000E+0006
 3.85880000000000E+0003  1.28334800000000E+0006
 3.85900000000000E+0003  1.27019500000000E+0006
 3.85920000000000E+0003  1.28027700000000E+0006
 3.85940000000000E+0003  1.26867300000000E+0006
 3.85960000000000E+0003  1.27569700000000E+0006
 3.85980000000000E+0003  1.27200200000000E+0006
 3.86000000000000E+0003  1.27403700000000E+0006
 3.86020000000000E+0003  1.28844800000000E+0006
 3.86040000000000E+0003  1.28329000000000E+0006
 3.86060000000000E+0003  1.28185400000000E+0006
 3.86080000000000E+0003  1.28326500000000E+0006
 3.86100000000000E+0003  1.29259200000000E+0006
 3.86120000000000E+0003  1.29974800000000E+0006
 3.86140000000000E+0003  1.29733400000000E+0006
 3.86160000000000E+0003  1.29202700000000E+0006
 3.86180000000000E+0003  1.29622900000000E+0006
 3.86200000000000E+0003  1.31341300000000E+0006
 3.86220000000000E+0003  1.31138100000000E+0006
 3.86240000000000E+0003  1.31060300000000E+0006
 3.86260000000000E+0003  1.30782700000000E+0006
 3.86280000000000E+0003  1.31004000000000E+0006
 3.86300000000000E+0003  1.31502000000000E+0006
 3.86320000000000E+0003  1.31769700000000E+0006
 3.86340000000000E+0003  1.31112400000000E+0006
 3.86360000000000E+0003  1.31649000000000E+0006
 3.86380000000000E+0003  1.30648900000000E+0006
 3.86400000000000E+0003  1.30966900000000E+0006
 3.86420000000000E+0003  1.32146600000000E+0006
 3.86440000000000E+0003  1.30426700000000E+0006
 3.86460000000000E+0003  1.30211900000000E+0006
 3.86480000000000E+0003  1.29583300000000E+0006
 3.86500000000000E+0003  1.31020500000000E+0006
 3.86520000000000E+0003  1.30901500000000E+0006
 3.86540000000000E+0003  1.30116200000000E+0006
 3.86560000000000E+0003  1.28964100000000E+0006
 3.86580000000000E+0003  1.29332700000000E+0006
 3.86600000000000E+0003  1.29278100000000E+0006
 3.86620000000000E+0003  1.30421900000000E+0006
 3.86640000000000E+0003  1.31920400000000E+0006
 3.86660000000000E+0003  1.31379200000000E+0006
 3.86680000000000E+0003  1.30009400000000E+0006
 3.86700000000000E+0003  1.31128700000000E+0006
 3.86720000000000E+0003  1.32786900000000E+0006
 3.86740000000000E+0003  1.32059600000000E+0006
 3.86760000000000E+0003  1.32298800000000E+0006
 3.86780000000000E+0003  1.32867700000000E+0006
 3.86800000000000E+0003  1.33093300000000E+0006
 3.86820000000000E+0003  1.32081800000000E+0006
 3.86840000000000E+0003  1.34228300000000E+0006
 3.86860000000000E+0003  1.32381900000000E+0006
 3.86880000000000E+0003  1.32484800000000E+0006
 3.86900000000000E+0003  1.33841300000000E+0006
 3.86920000000000E+0003  1.33097400000000E+0006
 3.86940000000000E+0003  1.34159400000000E+0006
 3.86960000000000E+0003  1.33339900000000E+0006
 3.86980000000000E+0003  1.32546800000000E+0006
 3.87000000000000E+0003  1.33957600000000E+0006
 3.87020000000000E+0003  1.33146100000000E+0006
 3.87040000000000E+0003  1.34871200000000E+0006
 3.87060000000000E+0003  1.34254300000000E+0006
 3.87080000000000E+0003  1.34381400000000E+0006
 3.87100000000000E+0003  1.35787800000000E+0006
 3.87120000000000E+0003  1.33158500000000E+0006
 3.87140000000000E+0003  1.37389800000000E+0006
 3.87160000000000E+0003  1.36041100000000E+0006
 3.87180000000000E+0003  1.37237500000000E+0006
 3.87200000000000E+0003  1.36735500000000E+0006
 3.87220000000000E+0003  1.36924100000000E+0006
 3.87240000000000E+0003  1.36796100000000E+0006
 3.87260000000000E+0003  1.38074300000000E+0006
 3.87280000000000E+0003  1.39066900000000E+0006
 3.87300000000000E+0003  1.39350500000000E+0006
 3.87320000000000E+0003  1.40208700000000E+0006
 3.87340000000000E+0003  1.39446900000000E+0006
 3.87360000000000E+0003  1.39858500000000E+0006
 3.87380000000000E+0003  1.41869400000000E+0006
 3.87400000000000E+0003  1.42829400000000E+0006
 3.87420000000000E+0003  1.44552300000000E+0006
 3.87440000000000E+0003  1.46163400000000E+0006
 3.87460000000000E+0003  1.48505100000000E+0006
 3.87480000000000E+0003  1.49451500000000E+0006
 3.87500000000000E+0003  1.49403200000000E+0006
 3.87520000000000E+0003  1.51953400000000E+0006
 3.87540000000000E+0003  1.52188800000000E+0006
 3.87560000000000E+0003  1.54696700000000E+0006
 3.87580000000000E+0003  1.55403300000000E+0006
 3.87600000000000E+0003  1.54227100000000E+0006
 3.87620000000000E+0003  1.52245000000000E+0006
 3.87640000000000E+0003  1.50265900000000E+0006
 3.87660000000000E+0003  1.44108600000000E+0006
 3.87680000000000E+0003  1.40042200000000E+0006
 3.87700000000000E+0003  1.37618000000000E+0006
 3.87720000000000E+0003  1.33318800000000E+0006
 3.87740000000000E+0003  1.32153500000000E+0006
 3.87760000000000E+0003  1.30641700000000E+0006
 3.87780000000000E+0003  1.30455000000000E+0006
 3.87800000000000E+0003  1.30042700000000E+0006
 3.87820000000000E+0003  1.30482000000000E+0006
 3.87840000000000E+0003  1.29464100000000E+0006
 3.87860000000000E+0003  1.30074400000000E+0006
 3.87880000000000E+0003  1.28767800000000E+0006
 3.87900000000000E+0003  1.30131500000000E+0006
 3.87920000000000E+0003  1.30340700000000E+0006
 3.87940000000000E+0003  1.29852800000000E+0006
 3.87960000000000E+0003  1.28796100000000E+0006
 3.87980000000000E+0003  1.30833900000000E+0006
 3.88000000000000E+0003  1.30086100000000E+0006
 3.88020000000000E+0003  1.29384700000000E+0006
 3.88040000000000E+0003  1.30333000000000E+0006
 3.88060000000000E+0003  1.31934100000000E+0006
 3.88080000000000E+0003  1.29928600000000E+0006
 3.88100000000000E+0003  1.30219900000000E+0006
 3.88120000000000E+0003  1.30626100000000E+0006
 3.88140000000000E+0003  1.31451600000000E+0006
 3.88160000000000E+0003  1.30610800000000E+0006
 3.88180000000000E+0003  1.30967600000000E+0006
 3.88200000000000E+0003  1.32126600000000E+0006
 3.88220000000000E+0003  1.32523200000000E+0006
 3.88240000000000E+0003  1.31358600000000E+0006
 3.88260000000000E+0003  1.31728400000000E+0006
 3.88280000000000E+0003  1.32333700000000E+0006
 3.88300000000000E+0003  1.32741700000000E+0006
 3.88320000000000E+0003  1.33014600000000E+0006
 3.88340000000000E+0003  1.32583200000000E+0006
 3.88360000000000E+0003  1.34708500000000E+0006
 3.88380000000000E+0003  1.33348500000000E+0006
 3.88400000000000E+0003  1.33434600000000E+0006
 3.88420000000000E+0003  1.35106600000000E+0006
 3.88440000000000E+0003  1.35194500000000E+0006
 3.88460000000000E+0003  1.36031500000000E+0006
 3.88480000000000E+0003  1.35985100000000E+0006
 3.88500000000000E+0003  1.36981100000000E+0006
 3.88520000000000E+0003  1.37102700000000E+0006
 3.88540000000000E+0003  1.38285500000000E+0006
 3.88560000000000E+0003  1.39553300000000E+0006
 3.88580000000000E+0003  1.39841700000000E+0006
 3.88600000000000E+0003  1.39805400000000E+0006
 3.88620000000000E+0003  1.41705600000000E+0006
 3.88640000000000E+0003  1.41644800000000E+0006
 3.88660000000000E+0003  1.44262300000000E+0006
 3.88680000000000E+0003  1.44397100000000E+0006
 3.88700000000000E+0003  1.48119500000000E+0006
 3.88720000000000E+0003  1.49524500000000E+0006
 3.88740000000000E+0003  1.52975000000000E+0006
 3.88760000000000E+0003  1.53275000000000E+0006
 3.88780000000000E+0003  1.56613400000000E+0006
 3.88800000000000E+0003  1.61557600000000E+0006
 3.88820000000000E+0003  1.63023500000000E+0006
 3.88840000000000E+0003  1.65349900000000E+0006
 3.88860000000000E+0003  1.67046100000000E+0006
 3.88880000000000E+0003  1.69699200000000E+0006
 3.88900000000000E+0003  1.70401600000000E+0006
 3.88920000000000E+0003  1.75153200000000E+0006
 3.88940000000000E+0003  1.69027200000000E+0006
 3.88960000000000E+0003  1.50347800000000E+0006
 3.88980000000000E+0003  1.33711000000000E+0006
 3.89000000000000E+0003  1.27795300000000E+0006
 3.89020000000000E+0003  1.26397300000000E+0006
 3.89040000000000E+0003  1.24280900000000E+0006
 3.89060000000000E+0003  1.25100800000000E+0006
 3.89080000000000E+0003  1.24057400000000E+0006
 3.89100000000000E+0003  1.23215100000000E+0006
 3.89120000000000E+0003  1.24370500000000E+0006
 3.89140000000000E+0003  1.22202600000000E+0006
 3.89160000000000E+0003  1.24558600000000E+0006
 3.89180000000000E+0003  1.24004100000000E+0006
 3.89200000000000E+0003  1.24374400000000E+0006
 3.89220000000000E+0003  1.23395800000000E+0006
 3.89240000000000E+0003  1.24860700000000E+0006
 3.89260000000000E+0003  1.24854500000000E+0006
 3.89280000000000E+0003  1.24205700000000E+0006
 3.89300000000000E+0003  1.24949000000000E+0006
 3.89320000000000E+0003  1.23955400000000E+0006
 3.89340000000000E+0003  1.24511500000000E+0006
 3.89360000000000E+0003  1.24576800000000E+0006
 3.89380000000000E+0003  1.25918400000000E+0006
 3.89400000000000E+0003  1.25636900000000E+0006
 3.89420000000000E+0003  1.25896900000000E+0006
 3.89440000000000E+0003  1.25522400000000E+0006
 3.89460000000000E+0003  1.25215100000000E+0006
 3.89480000000000E+0003  1.27112700000000E+0006
 3.89500000000000E+0003  1.25038300000000E+0006
 3.89520000000000E+0003  1.26367600000000E+0006
 3.89540000000000E+0003  1.25573500000000E+0006
 3.89560000000000E+0003  1.26164500000000E+0006
 3.89580000000000E+0003  1.26658100000000E+0006
 3.89600000000000E+0003  1.27015800000000E+0006
 3.89620000000000E+0003  1.27617400000000E+0006
 3.89640000000000E+0003  1.26758500000000E+0006
 3.89660000000000E+0003  1.27099100000000E+0006
 3.89680000000000E+0003  1.27286600000000E+0006
 3.89700000000000E+0003  1.28382200000000E+0006
 3.89720000000000E+0003  1.28180800000000E+0006
 3.89740000000000E+0003  1.28769200000000E+0006
 3.89760000000000E+0003  1.28561500000000E+0006
 3.89780000000000E+0003  1.28770000000000E+0006
 3.89800000000000E+0003  1.28733000000000E+0006
 3.89820000000000E+0003  1.27664600000000E+0006
 3.89840000000000E+0003  1.29092000000000E+0006
 3.89860000000000E+0003  1.29347500000000E+0006
 3.89880000000000E+0003  1.29763600000000E+0006
 3.89900000000000E+0003  1.30586800000000E+0006
 3.89920000000000E+0003  1.30464800000000E+0006
 3.89940000000000E+0003  1.30533400000000E+0006
 3.89960000000000E+0003  1.29324800000000E+0006
 3.89980000000000E+0003  1.29608600000000E+0006
 3.90000000000000E+0003  1.29652700000000E+0006

